time,c_avg,energy
0.0,0.5001937888262672,322.774857259372
0.1,0.5002016501659714,322.7391317213742
0.2,0.500204226733717,322.73791116300885
0.3,0.5002057857998203,322.7366499895094
0.4,0.5002074493202324,322.73488584814555
0.5,0.5002094748605352,322.73233774983214
0.6,0.5002120054273849,322.728620673546
0.7,0.5002151967021691,322.72316570284335
0.8,0.5002192407627744,322.71512202934986
0.9,0.5002243761672472,322.7032125732747
1.0,0.5002308984411934,322.6855169080871
1.1,0.5002391728400857,322.6591444441304
1.2,0.5002496491793245,322.61974393817
1.3,0.5002628778237369,322.5607720515816
1.4,0.500279524951507,322.47241418074077
1.5,0.5003003791481463,322.34001684952284
1.6,0.5003263480642205,322.14181236899026
1.7,0.500358601431064,321.84571833824657
1.8,0.5003986103458836,321.40490826207576
1.9,0.500447995021704,320.7517244421191
2.0,0.5005083136282188,319.7905656133369
2.1,0.500580512501774,318.39057620946414
2.2,0.5006659953083303,316.38372073392406
2.3,0.5007640465764445,313.5734922366923
2.4,0.5008729681825679,309.75892947317595
2.5,0.500987943788137,304.78952030138623
2.6,0.5011004915767605,298.63451405045055
2.7,0.5012028996145474,291.4765152645193
2.8,0.501287145596834,283.73504038982134
2.9,0.5013448179343999,276.0049857696521
3.0,0.501375554494614,268.87668106103183
3.1,0.5013774058894817,262.75394990826896
3.2,0.5013525978470094,257.7629263028918
3.3,0.5013005640011678,253.78916888209127
3.4,0.5012264676945571,250.61172736565857
3.5,0.5011350015975963,248.00852299270053
3.6,0.5010302294358031,245.8089274870734
3.7,0.5009188848814762,243.90081709851884
3.8,0.5008060013590995,242.21832078741645
3.9,0.5006963870695936,240.71918536034323
4.0,0.5005940673689068,239.36890570199486
4.1,0.500499749793866,238.14215995774373
4.2,0.5004138619690865,237.01917339359935
4.3,0.5003361022488746,235.98290004679544
4.4,0.50026548186853,235.0199832741281
4.5,0.5002014536248974,234.12024477778186
4.6,0.5001430555403903,233.2731163349991
4.7,0.5000890443712279,232.46909264789286
4.8,0.5000386238229437,231.69922702447516
4.9,0.49999133834533127,230.95604551329737
5.0,0.49994685912887793,230.23430392012523
5.1,0.49990485557563163,229.52983262851242
5.2,0.4998651687207444,228.83925963752716
5.3,0.4998275442263296,228.16064296331305
5.4,0.49979164780583507,227.49241158321328
5.5,0.49975706109867424,226.8331217639974
5.6,0.49972360059760634,226.18219089766396
5.7,0.49969134733805626,225.53927844105726
5.8,0.49966053182157816,224.9044586279584
5.9,0.4996311797368535,224.27787958271
6.0,0.4996029948788742,223.65972735445231
6.1,0.49957620850056866,223.05050415122358
6.2,0.4995511412338819,222.45111007457447
6.3,0.49952772556102154,221.86198748369767
6.4,0.4995056563543027,221.28330009442556
6.5,0.49948488309748096,220.71506996562385
6.6,0.4994655605706052,220.15762925568933
6.7,0.4994476854804732,219.61076036593929
6.8,0.49943116525908193,219.07425244621328
6.9,0.4994158445454691,218.5476495946404
7.0,0.4994016261878805,218.03048896353627
7.1,0.49938844910020525,217.52300094636587
7.2,0.4993763068533441,217.02551789521684
7.3,0.4993651035373097,216.53767667943617
7.4,0.49935467961589186,216.05890946376888
7.5,0.49934486244681503,215.5891026245106
7.6,0.4993357233853736,215.12821255259746
7.7,0.49932727880839645,214.67627174008334
7.8,0.49931940012957776,214.23357415613873
7.9,0.49931181681106096,213.80016698847112
8.0,0.49930452586292534,213.37565740756907
8.1,0.49929742670972965,212.95948724064863
8.2,0.49929041803265967,212.5512303347132
8.3,0.49928344367100963,212.15057035681983
8.4,0.4992764909858199,211.75752556597186
8.5,0.4992694676799814,211.37231911977148
8.6,0.4992624143298915,210.99499900132807
8.7,0.4992553426118815,210.62517278987107
8.8,0.49924819564740064,210.26234860313556
8.9,0.499240966238917,209.90622401021432
9.0,0.49923367701352556,209.55669015231743
9.1,0.49922624018759765,209.21367020357675
9.2,0.4992184880539908,208.87691927216085
9.3,0.4992103543580797,208.54601316752513
9.4,0.49920169760854444,208.22065367039676
9.5,0.49919240983100804,207.9005441060113
9.6,0.49918241246064843,207.58538426465984
9.7,0.4991716156517474,207.27477815250714
9.8,0.49915995551189957,206.9682841424314
9.9,0.4991475531370413,206.66558249539446
10.0,0.49913449524212616,206.36649265265697
10.1,0.49912084168044824,206.07088191513154
10.2,0.4991066455996732,205.77861377950526
10.3,0.49909192886670395,205.4895228466929
10.4,0.4990767058823238,205.2033997144918
10.5,0.49906091040851236,204.9200046090834
10.6,0.4990444674664357,204.63910954174344
10.7,0.49902732527501104,204.3604749871297
10.8,0.4990094605241897,204.08382238756562
10.9,0.4989909090631937,203.80894089809843
11.0,0.4989717315463683,203.53562811210466
11.1,0.4989519307982697,203.2637101824382
11.2,0.4989314450665155,202.99305358805185
11.3,0.49891013835965703,202.7235152155177
11.4,0.49888793927017366,202.45495296443823
11.5,0.49886484080350535,202.18717764657166
11.6,0.4988409027267293,201.92002364272645
11.7,0.4988162077113712,201.65328901357276
11.8,0.4987907673704489,201.38681205553405
11.9,0.49876454913078194,201.1204211180949
12.0,0.4987374981571961,200.8538668576465
12.1,0.4987095774335012,200.5868625128055
12.2,0.49868078556734113,200.31915396813963
12.3,0.4986511848782223,200.0504731427444
12.4,0.49862083484887404,199.7806366345636
12.5,0.4985897727136539,199.5094508901535
12.6,0.49855795673895476,199.23667407300033
12.7,0.49852542872691097,198.96211184516392
12.8,0.49849223375349017,198.6856911736864
12.9,0.49845838530702413,198.40736937830468
13.0,0.4984240765353151,198.1271005252983
13.1,0.49838955072875574,197.84479627096758
13.2,0.4983551139146969,197.5604407443318
13.3,0.4983209308408904,197.27412217773033
13.4,0.49828724149396,196.98610574441227
13.5,0.4982541466110082,196.6968648151151
13.6,0.4982218471473116,196.40682210023508
13.7,0.49819076580663424,196.11645223185002
13.8,0.49816140133344655,195.82629602872848
13.9,0.49813365690030303,195.53676458542483
14.0,0.4981071288280754,195.24791472362693
14.1,0.4980820257985358,194.96014707356784
14.2,0.4980587633257866,194.67382461933826
14.3,0.4980374426901549,194.38895852377485
14.4,0.4980176569928134,194.1052221820103
14.5,0.4979991244425644,193.8225463763591
14.6,0.4979815737630312,193.54111123410095
14.7,0.49796502016939764,193.2609838195267
14.8,0.4979494876479776,192.98208017725167
14.9,0.4979348820369485,192.70431252583694
15.0,0.4979210598656888,192.42764001819754
15.1,0.49790798277362586,192.15204388380891
15.2,0.497895608836534,191.8775759291569
15.3,0.4978838646184494,191.60430370985762
15.4,0.49787270601243316,191.33206261531612
15.5,0.4978621351572882,191.06059240135218
15.6,0.49785216928302795,190.7897549623451
15.7,0.4978427806537609,190.51950360371575
15.8,0.49783390080142575,190.24976118686888
15.9,0.49782555336861645,189.98035328140062
16.0,0.49781776692655716,189.71117788982633
16.1,0.49781046930683215,189.44224924806986
16.2,0.4978036039296491,189.17353942938757
16.3,0.49779715846486133,188.9050851458488
16.4,0.49779112222646094,188.63698261350638
16.5,0.4977855672025,188.36928456529662
16.6,0.4977805406829535,188.10205977312552
16.7,0.4977760274101148,187.8353131799682
16.8,0.49777204346163184,187.56887531800388
16.9,0.4977686141214879,187.30253260897564
17.0,0.49776572076454556,187.0362219274588
17.1,0.49776333429504777,186.76990796398283
17.2,0.4977613965283899,186.503641936793
17.3,0.4977598656569989,186.23746697352402
17.4,0.4977587979748341,185.9714017586396
17.5,0.49775820507230006,185.70544733866274
17.6,0.4977580764418121,185.43947997635817
17.7,0.4977583843462217,185.1735222449252
17.8,0.4977591222748314,184.9076931622994
17.9,0.49776024443581113,184.64206860638484
18.0,0.49776172378142625,184.37660141345648
18.1,0.4977635363528364,184.11120669898088
18.2,0.497765668412456,183.84593181127846
18.3,0.49776810236585595,183.58074008176905
18.4,0.4977708557792051,183.31566730131917
18.5,0.49777386282109687,183.05087191279986
18.6,0.4977770524647385,182.7866053685969
18.7,0.4977804389818193,182.5228922393459
18.8,0.49778395474393855,182.25978667836753
18.9,0.4977874787860646,181.99745615863372
19.0,0.4977909343384032,181.73587235531102
19.1,0.4977941788093356,181.4750783271936
19.2,0.4977970578469041,181.21538854533438
19.3,0.4977995666104028,180.95705302193218
19.4,0.4978016396004836,180.7004470558996
19.5,0.4978033354727259,180.4460131451156
19.6,0.49780475546942116,180.19418137739223
19.7,0.4978057614839374,179.94528289030978
19.8,0.49780615618989305,179.69954099905314
19.9,0.4978057703966555,179.45734401170438
20.0,0.49780434677944396,179.21902701909286
20.1,0.4978021469296274,178.9849950841953
20.2,0.49779937249862094,178.75575153082625
20.3,0.4977962519204983,178.5314450496949
20.4,0.49779280508637397,178.31185340184058
20.5,0.497788861839698,178.09685162165235
20.6,0.49778447455007857,177.88643737335622
20.7,0.497779778012413,177.68051458426834
20.8,0.4977746711106247,177.47903287628571
20.9,0.49776913005625995,177.28210566933848
21.0,0.49776328263847397,177.08978927940942
21.1,0.49775726693560884,176.90171510672914
21.2,0.4977511430937202,176.71744295683908
21.3,0.4977449199511559,176.5366615679057
21.4,0.4977385514906146,176.35918191368847
21.5,0.49773204882506294,176.18484771102547
21.6,0.49772541862512604,176.01360365333568
21.7,0.4977185705716261,175.84537699649798
21.8,0.49771139598861,175.6800266245013
21.9,0.49770395166411224,175.51742645348702
22.0,0.49769623558463183,175.35743374287946
22.1,0.4976881585791992,175.19991999134965
22.2,0.4976795337380716,175.04474259493588
22.3,0.4976703353686695,174.89177022065533
22.4,0.4976608180821534,174.7409637562246
22.5,0.4976510416733824,174.5923193815293
22.6,0.49764100808878303,174.44575774530534
22.7,0.49763069471832244,174.30114280646586
22.8,0.4976200437229086,174.1584051520784
22.9,0.4976089000355666,174.01752882192272
23.0,0.49759716086992783,173.87848269824545
23.1,0.49758477460794115,173.74121784350362
23.2,0.49757172466434185,173.60564612562908
23.3,0.4975580696478996,173.47167685917185
23.4,0.4975438813689369,173.3392407447922
23.5,0.49752915723931884,173.2082882527704
23.6,0.49751380592886724,173.0786920285189
23.7,0.49749775013808056,172.95035088877353
23.8,0.4974809621522317,172.82315237103185
23.9,0.4974634681102726,172.69694865713143
24.0,0.4974453385839438,172.5715347338001
24.1,0.49742654731150093,172.44672218032264
24.2,0.49740706492829223,172.3224237158922
24.3,0.4973868184539259,172.19855743768724
24.4,0.49736576307563457,172.07503628568998
24.5,0.4973438850420611,171.95175649634876
24.6,0.49732119088559534,171.82859335855127
24.7,0.49729770432919174,171.70543203448585
24.8,0.49727346275652323,171.58217090325982
24.9,0.4972484684697942,171.45862627015296
25.0,0.4972227015877784,171.33461895370993
25.1,0.4971962057937687,171.2099615974719
25.2,0.4971689998882062,171.08450532088528
25.3,0.4971411048799823,170.9581594762157
25.4,0.497112699099365,170.8308986205827
25.5,0.4970839595123447,170.70275560648892
25.6,0.4970550842769043,170.573806092695
25.7,0.4970262533036901,170.4442691034424
25.8,0.4969975581552022,170.31438088241518
25.9,0.4969691921034175,170.18442972507253
26.0,0.49694119039759366,170.0547259969537
26.1,0.4969137428089145,169.92545129080702
26.2,0.4968872296351915,169.79686213029714
26.3,0.49686208036031265,169.6692536414737
26.4,0.4968382501054642,169.54288558883994
26.5,0.4968153723337308,169.41776321141396
26.6,0.4967934439774007,169.29412597886812
26.7,0.496772694365337,169.1722716383612
26.8,0.49675345952240435,169.05238830492007
26.9,0.49673555202796726,168.93439983635423
27.0,0.4967186812090475,168.81812769751062
27.1,0.49670262030105694,168.70355111281003
27.2,0.496687205483396,168.5907618383474
27.3,0.4966723510115259,168.47976734985826
27.4,0.49665810308829017,168.37065344227534
27.5,0.49664444620390996,168.26340294624566
27.6,0.4966313136319422,168.1578559678357
27.7,0.49661862938917184,168.05384992594523
27.8,0.49660631987678144,167.95124796308963
27.9,0.49659431944244614,167.85001776098116
28.0,0.4965825742485979,167.75014187170302
28.1,0.4965710593888955,167.6515970928769
28.2,0.49655977544114416,167.55435772598403
28.3,0.49654869755448117,167.4583558855742
28.4,0.4965378083737642,167.3635367506928
28.5,0.49652707772729615,167.26990585114956
28.6,0.4965164796102365,167.17745084531674
28.7,0.4965060129479221,167.0861120094695
28.8,0.49649566175286997,166.99581687233376
28.9,0.49648539575152734,166.9065240195426
29.0,0.4964751928146002,166.81820738835322
29.1,0.496465037402556,166.73084960161185
29.2,0.49645490795898894,166.64441249333632
29.3,0.496444818395118,166.55884158702617
29.4,0.4964347997487947,166.47405109785097
29.5,0.4964248589027853,166.38996088558463
29.6,0.49641502264074033,166.30654647454716
29.7,0.49640530486378026,166.22379574791432
29.8,0.49639570536117555,166.1417070252393
29.9,0.4963862140188522,166.0602679196053
30.0,0.4963768171601664,165.97947259445388
30.1,0.4963675063871798,165.89931632950763
30.2,0.49635826591538534,165.8198141568895
30.3,0.49634907092928043,165.7409993388783
30.4,0.496339912528284,165.66289047356995
30.5,0.49633079783633693,165.5855167998007
30.6,0.4963217352400908,165.5088886689381
30.7,0.4963127311668453,165.43298865259368
30.8,0.49630377706812856,165.35778579953646
30.9,0.49629486401671824,165.2832262773043
31.0,0.4962859801987229,165.2092578081814
31.1,0.4962771156672455,165.13585235371752
31.2,0.4962682713814445,165.06300746371898
31.3,0.49625945528943066,164.99069566901295
31.4,0.4962506726448107,164.91890475915403
31.5,0.4962419244367496,164.84761367590713
31.6,0.4962332082215054,164.776815830134
31.7,0.496224521291958,164.70651553020218
31.8,0.4962158679115453,164.63671956196606
31.9,0.49620725248002284,164.567441813967
32.0,0.49619867988322147,164.49869033161679
32.1,0.4961901546070845,164.43047617144677
32.2,0.4961816792851579,164.36280242449013
32.3,0.4961732527660172,164.29565195420594
32.4,0.49616486947693783,164.2290023767797
32.5,0.4961565253791583,164.16284821453624
32.6,0.49614821496703765,164.09718274073205
32.7,0.49613993597756456,164.03199376814445
32.8,0.4961316927925462,163.96727782654267
32.9,0.4961234805618885,163.90303478709342
33.0,0.4961152943699731,163.8392670523241
33.1,0.4961071333401658,163.77599541087855
33.2,0.49609900554948044,163.71320834679923
33.3,0.49609091814146666,163.65088909219114
33.4,0.4960828743285771,163.58900908631998
33.5,0.4960748774108724,163.52755992133706
33.6,0.49606692346681946,163.46655010474893
33.7,0.49605900977519685,163.40600000112119
33.8,0.4960511346882583,163.34590649713212
33.9,0.49604329489449317,163.28626600115075
34.0,0.49603548841286127,163.2270780058165
34.1,0.49602770569102883,163.16833122339634
34.2,0.4960199346882334,163.11000645286362
34.3,0.4960121813560299,163.0520840361838
34.4,0.49600445022469186,162.99455636689004
34.5,0.49599674783926423,162.9374275503015
34.6,0.49598908743300535,162.88070500382523
34.7,0.4959814666796517,162.8243887694487
34.8,0.4959738819883466,162.76847704464677
34.9,0.495966335073808,162.71296451865928
35.0,0.49595883130540225,162.65784594392937
35.1,0.49595137619314855,162.6031289484581
35.2,0.495943975237151,162.5487981847866
35.3,0.4959366232681512,162.4948153291781
35.4,0.4959293129963514,162.4411581714504
35.5,0.4959220421930995,162.38782286687695
35.6,0.4959148088079595,162.33480957251012
35.7,0.4959076091837287,162.28211596252032
35.8,0.49590044277846795,162.2297351145922
35.9,0.4958933112846051,162.177661043341
36.0,0.49588621583198395,162.12589539558417
36.1,0.49587915485255635,162.07444320899566
36.2,0.4958721309347679,162.0233039148088
36.3,0.4958651493329496,161.97247655464403
36.4,0.49585821125278307,161.9219706827149
36.5,0.49585132140074395,161.8718031867871
36.6,0.4958444807971974,161.82199290448597
36.7,0.4958376907181049,161.77255201128315
36.8,0.49583095523799314,161.72347768537284
36.9,0.49582427577566013,161.67476066680254
37.0,0.49581764931596783,161.62639825285785
37.1,0.4958110731297557,161.57839865136663
37.2,0.4958045494711605,161.5307739932762
37.3,0.4957980846469325,161.48352734897693
37.4,0.49579168052249284,161.43663395873932
37.5,0.49578533075774567,161.39007110446067
37.6,0.4957790300632244,161.3438265721674
37.7,0.4957727828966007,161.29788583765955
37.8,0.49576660029473396,161.25222552350925
37.9,0.4957604871478843,161.2068380332337
38.0,0.49575444872752206,161.16171785058367
38.1,0.49574848067274213,161.1168564378437
38.2,0.49574257876664196,161.07224133754914
38.3,0.4957367429713388,161.027857694224
38.4,0.49573097298679974,160.98370371830444
38.5,0.49572526821655366,160.93977928280063
38.6,0.49571962814962656,160.89608375464658
38.7,0.49571405313754535,160.85261542033479
38.8,0.4957085428693881,160.80938463753125
38.9,0.49570310065408124,160.76640037615093
39.0,0.49569772900904946,160.72367313768478
39.1,0.4956924219294449,160.68119633950332
39.2,0.49568717365979015,160.63897169149806
39.3,0.4956819809748554,160.59700461086686
39.4,0.4956768401884226,160.55529481410974
39.5,0.49567174390306773,160.51384229720952
39.6,0.495666682536403,160.47264832677763
39.7,0.49566164522752904,160.43171189634242
39.8,0.49565662209189243,160.39103238225977
39.9,0.49565160785765106,160.3506070274068
40.0,0.495646602895742,160.31043553856372
40.1,0.4956416106373111,160.27051433626818
40.2,0.49563663194779756,160.23083257160107
40.3,0.4956316677296322,160.191380009585
40.4,0.4956267156148392,160.15214920385395
40.5,0.49562177391800294,160.1131371821215
40.6,0.4956168436529456,160.0743390330602
40.7,0.4956119261755395,160.03576437652393
40.8,0.4956070258073058,159.99741774865342
40.9,0.4956021474768807,159.9592961143282
41.0,0.495597293175497,159.92139568550118
41.1,0.4955924648522474,159.8837115005999
41.2,0.49558766379492564,159.84623582231686
41.3,0.4955828930094277,159.80896940746732
41.4,0.4955781570089181,159.77191488661504
41.5,0.4955734593286424,159.73507154039268
41.6,0.4955688019155959,159.69844076957764
41.7,0.49556418511804917,159.66202655117394
41.8,0.49555960631150897,159.6258286836403
41.9,0.49555506441481806,159.58984689430105
42.0,0.4955505604468956,159.5540767896035
42.1,0.49554609222294843,159.51852012683548
42.2,0.4955416569335287,159.4831857163611
42.3,0.49553725344505734,159.44807278375026
42.4,0.49553288046873534,159.41317521277668
42.5,0.495528538539905,159.37849539477435
42.6,0.49552422568475185,159.3440270359324
42.7,0.49551993776429537,159.30976346767264
42.8,0.49551566930602176,159.2757124203741
42.9,0.4955114113924962,159.24187808369103
43.0,0.4955071587349321,159.20825583172376
43.1,0.49550290745302517,159.17484382126747
43.2,0.4954986532411079,159.1416470886347
43.3,0.49549439803646134,159.1086626976098
43.4,0.495490142533718,159.07588644776428
43.5,0.4954858837386245,159.0433127297834
43.6,0.4954816224565671,159.01093923430878
43.7,0.49547736018018324,158.9787659207795
43.8,0.4954730966313894,158.9467915066039
43.9,0.49546882963516164,158.91501140370227
44.0,0.4954645619394746,158.88341346908882
44.1,0.4954602970185123,158.85197706585564
44.2,0.4954560359067959,158.82068626133105
44.3,0.49545178046492644,158.78953104361972
44.4,0.4954475318301737,158.75850633602195
44.5,0.49544329169981316,158.72761287445553
44.6,0.4954390595957873,158.69686087102139
44.7,0.4954348335880388,158.66625887479992
44.8,0.49543061111356845,158.6358065336863
44.9,0.49542639024607504,158.6055002893818
45.0,0.4954221665709921,158.57533498598943
45.1,0.4954179394925658,158.54531086579522
45.2,0.49541371978366977,158.5154403207837
45.3,0.4954095158478671,158.4857310480759
45.4,0.4954053296713213,158.4561847878362
45.5,0.4954011588571478,158.42680356776768
45.6,0.4953969991297178,158.39758426550165
45.7,0.49539284608659334,158.36852509607908
45.8,0.49538869707051236,158.33962437776503
45.9,0.49538454758985606,158.3108840988953
46.0,0.49538038996382705,158.2822982732177
46.1,0.49537622460609576,158.25385350591483
46.2,0.4953720518926832,158.22553696193728
46.3,0.49536786898983626,158.19734967100916
46.4,0.49536367394212816,158.16929411948732
46.5,0.4953594671624763,158.14136975631789
46.6,0.49535524779945117,158.11357586459394
